Freq	Z_abs	Z_rad
1.000000011117664E+0	7.409203109322563E+0	55.245872448682336E-3
1.500000016676497E+0	7.425697041558288E+0	94.888629975163979E-3
2.000000022235329E+0	7.455482625200788E+0	125.318312434073990E-3
2.500000027794161E+0	7.529971100820529E+0	156.139664240562360E-3
3.000000033352993E+0	7.581699699141712E+0	186.164614402307330E-3
3.500000038911825E+0	7.662874520611298E+0	214.862179661045290E-3
4.000000044470657E+0	7.737246452195312E+0	242.615762796532630E-3
4.500000050029490E+0	7.826639558882788E+0	269.300390395857850E-3
5.000000055588322E+0	7.918241317306359E+0	295.799505140640350E-3
5.500000061147155E+0	8.019325158642435E+0	321.697359047057430E-3
6.000000066705987E+0	8.133156607658112E+0	345.444025033624200E-3
6.500000072264820E+0	8.243233977030187E+0	370.019409569974140E-3
7.000000077823652E+0	8.371004452620095E+0	392.584362731515150E-3
7.500000083382485E+0	8.491038312258691E+0	416.309380748552670E-3
8.000000088941317E+0	8.621156501667850E+0	436.972060828716760E-3
8.500000094500148E+0	8.755577030788507E+0	457.963594879493510E-3
9.000000100058980E+0	8.897338719825711E+0	478.737625183083160E-3
9.500000105617811E+0	9.042852766528116E+0	497.722773909240690E-3
10.000000111176643E+0	9.195765094016686E+0	517.656176157545330E-3
10.500000116735475E+0	9.355245032558134E+0	537.201869178000500E-3
11.000000122294306E+0	9.516680323420362E+0	555.300592724973670E-3
11.500000127853138E+0	9.685182105529964E+0	573.836637900579370E-3
12.000000133411969E+0	9.864719968130666E+0	591.177242835487230E-3
12.500000138970801E+0	10.040964974728800E+0	607.168071969969800E-3
13.000000144529633E+0	10.227823629508764E+0	624.449773122688340E-3
13.500000150088464E+0	10.420241545758495E+0	640.883275718427400E-3
14.000000155647296E+0	10.617637221307760E+0	655.904553579668040E-3
14.500000161206128E+0	10.819431029652407E+0	671.380855032581380E-3
15.000000166764959E+0	11.034583827768618E+0	685.682302704281320E-3
15.500000172323791E+0	11.256789851104124E+0	701.457516609791720E-3
16.000000177882622E+0	11.481315319763423E+0	715.599533107797560E-3
16.500000183441454E+0	11.723757943872476E+0	729.428248437135610E-3
17.000000189000286E+0	11.972772909406164E+0	744.514117164117640E-3
17.500000194559117E+0	12.244392389645824E+0	757.740932949887310E-3
18.000000200117949E+0	12.513442520297058E+0	771.247869663362450E-3
18.500000205676780E+0	12.786961316113919E+0	784.029319953143400E-3
19.000000211235612E+0	13.070107588025788E+0	796.782522181719300E-3
19.500000216794444E+0	13.411869741755774E+0	811.865507364991410E-3
20.000000222353275E+0	13.757513936863129E+0	823.392597652590870E-3
20.500000227912107E+0	14.119843559508203E+0	835.445454908267160E-3
21.000000233470939E+0	14.545950925137994E+0	846.580742975789110E-3
21.500000239029770E+0	15.007690828887499E+0	860.772817254010560E-3
22.000000244588602E+0	15.588398114166351E+0	867.685674365347380E-3
22.500000250147433E+0	16.288213874249987E+0	874.467478689972770E-3
23.000000255706265E+0	17.157701368432082E+0	858.034001846361140E-3
23.500000261265097E+0	18.060301297098380E+0	789.084526337450190E-3
24.000000266823928E+0	16.699246911321239E+0	716.188821165291370E-3
24.500000272382760E+0	15.810122283368804E+0	805.736769458565200E-3
25.000000277941591E+0	16.227742054772150E+0	861.604329159297080E-3
25.500000283500423E+0	16.862291083417592E+0	889.591841548363790E-3
26.000000289059255E+0	17.461105512986592E+0	908.820152474183350E-3
26.500000294618086E+0	18.094591336130787E+0	926.200048039320660E-3
27.000000300176918E+0	18.724564084314025E+0	939.944014938763560E-3
27.500000305735750E+0	19.403104658824063E+0	948.752047893475780E-3
28.000000311294581E+0	20.123225034908419E+0	959.839164092172510E-3
28.500000316853413E+0	20.843243173878097E+0	969.093683296377020E-3
29.000000322412244E+0	21.610914950294230E+0	975.809808715290990E-3
29.500000327971076E+0	22.474109500970538E+0	983.305760948596560E-3
30.000000333529908E+0	23.358832567345630E+0	989.704032722830250E-3
30.500000339088739E+0	24.342048657025895E+0	994.775462337970540E-3
31.000000344647571E+0	25.356176295961212E+0	999.761381647069070E-3
31.500000350206403E+0	26.436256940532040E+0	1.001953956043830E+0
32.000000355765238E+0	27.685612500156573E+0	1.002408471245314E+0
32.500000361324069E+0	29.014899684810011E+0	1.005135622196046E+0
33.000000366882901E+0	30.512290012339214E+0	1.004193904592957E+0
33.500000372441733E+0	32.174808129079892E+0	1.000745354285868E+0
34.000000378000564E+0	33.848708109200743E+0	996.098373049519540E-3
34.500000383559396E+0	35.917360423672683E+0	988.990995067649310E-3
35.000000389118227E+0	37.951818763129872E+0	984.883792202721260E-3
35.500000394677059E+0	40.515509368940393E+0	971.646946674963980E-3
36.000000400235891E+0	43.209992948158018E+0	953.021311807962680E-3
36.500000405794722E+0	46.409052835503893E+0	928.437004668341340E-3
37.000000411353554E+0	50.035531858302477E+0	907.937247526425680E-3
37.500000416912385E+0	53.818815695703016E+0	868.523505849214450E-3
38.000000422471217E+0	58.331342811144957E+0	830.600050072408450E-3
38.500000428030049E+0	63.537786481916278E+0	779.302870798151300E-3
39.000000433588880E+0	69.392010344723616E+0	712.018896742068090E-3
39.500000439147712E+0	75.441066256344101E+0	625.099576959123100E-3
40.000000444706544E+0	81.505075470711958E+0	532.192337194659860E-3
40.500000450265375E+0	87.996480229873001E+0	419.724602974703320E-3
41.000000455824207E+0	92.372801079606347E+0	279.494677667373010E-3
41.500000461383038E+0	97.015336373365230E+0	122.063312996351840E-3
42.000000466941870E+0	97.139402186445480E+0	-25.167961140657759E-3
42.500000472500702E+0	94.085897298496690E+0	-181.584150893682990E-3
43.000000478059533E+0	89.593938071649461E+0	-322.320922338844180E-3
43.500000483618365E+0	83.686944493995128E+0	-433.676448285635450E-3
44.000000489177196E+0	78.392429919353660E+0	-545.570285169897250E-3
44.500000494736028E+0	71.146213849918084E+0	-628.839720508004960E-3
45.000000500294860E+0	65.078456406715134E+0	-692.008010566587670E-3
45.500000505853691E+0	59.953859996336256E+0	-753.597890060114910E-3
46.000000511412523E+0	55.157902783528016E+0	-801.395664137879550E-3
46.500000516971355E+0	50.970003827146087E+0	-832.073276259584830E-3
47.000000522530186E+0	47.192019644867031E+0	-856.890086883124400E-3
47.500000528089018E+0	44.083578079600500E+0	-882.525344591230000E-3
48.000000533647849E+0	41.336324441124383E+0	-898.095292251099630E-3
48.500000539206681E+0	38.582012425466239E+0	-912.490259832422600E-3
49.000000544765513E+0	36.461920975961647E+0	-920.621732781953920E-3
49.500000550324344E+0	34.408185924311176E+0	-926.788843297375990E-3
50.000000555883176E+0	32.710463314210180E+0	-928.900199076592160E-3
50.500000561442008E+0	31.059730539174257E+0	-929.791286499010330E-3
51.000000567000839E+0	29.659586217986106E+0	-931.388328620875170E-3
51.500000572559671E+0	28.267012670134257E+0	-929.290575118414950E-3
52.000000578118502E+0	27.147905630897519E+0	-922.020313740441020E-3
52.500000583677334E+0	26.006380140208197E+0	-917.451891804534900E-3
53.000000589236166E+0	25.041304873408521E+0	-913.777589861903380E-3
53.500000594794997E+0	24.119579583887351E+0	-908.246045689492520E-3
54.000000600353829E+0	23.175614970080105E+0	-896.307781328138040E-3
54.500000605912660E+0	22.397459289004285E+0	-888.715255148071810E-3
55.000000611471492E+0	21.614189569268952E+0	-878.765077080016390E-3
55.500000617030324E+0	20.977869707006278E+0	-870.336597971495320E-3
56.000000622589155E+0	20.310389830387990E+0	-858.404294342956180E-3
56.500000628147987E+0	19.758004994468948E+0	-852.400921807611840E-3
57.000000633706819E+0	19.233126174576100E+0	-832.119968351952570E-3
57.500000639265650E+0	18.652660517977949E+0	-827.930117941528150E-3
58.000000644824482E+0	18.202227289563705E+0	-813.917470217975890E-3
58.500000650383313E+0	17.753150207848172E+0	-804.840030691429180E-3
59.000000655942145E+0	17.344604763249908E+0	-790.443820562328540E-3
59.500000661500977E+0	16.916365133534711E+0	-778.979996232451400E-3
60.000000667059808E+0	16.579386798619190E+0	-761.365242333794430E-3
60.500000672618640E+0	16.220803782286548E+0	-747.444647052707190E-3
61.000000678177471E+0	15.914869709711596E+0	-731.035849273894090E-3
61.500000683736303E+0	15.605930656757014E+0	-716.500107122819310E-3
62.000000689295135E+0	15.353284092714469E+0	-693.903550337219950E-3
62.500000694853966E+0	15.203888501866855E+0	-674.312421428364230E-3
63.000000700412798E+0	15.148495241460798E+0	-657.398812341779990E-3
63.500000705971630E+0	15.150379856491918E+0	-644.680231552298810E-3
64.000000711530461E+0	15.186156748102290E+0	-646.621106682244150E-3
64.500000717089293E+0	15.008477110511224E+0	-650.269207011780480E-3
65.000000722648124E+0	14.695112435024413E+0	-647.592862100994980E-3
65.500000728206956E+0	14.437977708051832E+0	-641.753796000028690E-3
66.000000733765788E+0	14.142090034157725E+0	-633.732403949181950E-3
66.500000739324619E+0	13.902826108044227E+0	-623.384318741793560E-3
67.000000744883451E+0	13.679395343543074E+0	-611.301284890137020E-3
67.500000750442282E+0	13.485813626710319E+0	-599.014347967928960E-3
68.000000756001114E+0	13.307907569150299E+0	-588.474235831502270E-3
68.500000761559946E+0	13.158754419799719E+0	-574.400321877468700E-3
69.000000767118777E+0	13.010606988508433E+0	-561.745940038567150E-3
69.500000772677609E+0	12.889467242227758E+0	-549.369217387459030E-3
70.000000778236441E+0	12.726290753476942E+0	-536.500833820598770E-3
70.500000783795272E+0	12.610864469325755E+0	-524.297967876573350E-3
71.000000789354104E+0	12.489026010564535E+0	-513.440225836964470E-3
71.500000794912935E+0	12.391902085173214E+0	-500.595692501473950E-3
72.000000800471767E+0	12.289156354891588E+0	-486.644448994275280E-3
72.500000806030599E+0	12.229323088199310E+0	-473.434164414236250E-3
73.000000811589430E+0	12.169067334401166E+0	-462.587164611751140E-3
73.500000817148262E+0	12.111184144149730E+0	-453.434522201841720E-3
74.000000822707093E+0	12.023599424332268E+0	-443.823344586297800E-3
74.500000828265925E+0	11.953779145249094E+0	-435.341857513529550E-3
75.000000833824757E+0	11.875091057981161E+0	-424.649070014387120E-3
75.500000839383588E+0	11.788221538564894E+0	-417.137135114780730E-3
76.000000844942420E+0	11.717654807530025E+0	-405.221008420161400E-3
76.500000850501252E+0	11.642088057561269E+0	-394.718984132948650E-3
77.000000856060083E+0	11.570559036217194E+0	-382.951176065745750E-3
77.500000861618915E+0	11.521197345818310E+0	-374.166430376136500E-3
78.000000867177746E+0	11.447732223336601E+0	-363.350339221374110E-3
78.500000872736578E+0	11.403194684910341E+0	-353.126909612971500E-3
79.000000878295410E+0	11.360337379840363E+0	-344.289705012914840E-3
79.500000883854241E+0	11.322324763860250E+0	-333.237676353469620E-3
80.000000889413073E+0	11.267502314205636E+0	-323.052964331098260E-3
80.500000894971905E+0	11.205326412595996E+0	-314.067475830665190E-3
81.000000900530736E+0	11.182038490151859E+0	-302.702434067217090E-3
81.500000906089568E+0	11.160021286102054E+0	-293.663933555320170E-3
82.000000911648399E+0	11.135276918725406E+0	-283.517802351559210E-3
82.500000917207231E+0	11.090695194248754E+0	-273.392409506512670E-3
83.000000922766063E+0	11.046486108143631E+0	-265.885065337495780E-3
83.500000928324894E+0	11.025764364890010E+0	-256.403985787839740E-3
84.000000933883726E+0	11.004805746015078E+0	-247.155571273710050E-3
84.500000939442557E+0	10.974287113531467E+0	-237.856440782403060E-3
85.000000945001389E+0	10.975216748629142E+0	-229.167820708685880E-3
85.500000950560221E+0	10.945838590825399E+0	-222.462694791071420E-3
86.000000956119052E+0	10.929031788579833E+0	-211.869120259478020E-3
86.500000961677884E+0	10.909335652138857E+0	-205.674643789416830E-3
87.000000967236716E+0	10.897108161333930E+0	-196.574048169307510E-3
87.500000972795547E+0	10.880700970767199E+0	-187.337455207261280E-3
88.000000978354379E+0	10.864900809601947E+0	-179.053035514985110E-3
88.500000983913210E+0	10.854754132839291E+0	-170.513955892839660E-3
89.000000989472042E+0	10.836176509342001E+0	-163.145828559085550E-3
89.500000995030874E+0	10.835311974490475E+0	-157.301242968526460E-3
90.000001000589705E+0	10.819301487902564E+0	-147.419433253308060E-3
90.500001006148537E+0	10.816088971897623E+0	-141.525570784363560E-3
91.000001011707368E+0	10.812209723293739E+0	-132.153854987686030E-3
91.500001017266200E+0	10.808469460274415E+0	-126.497324581904910E-3
92.000001022825032E+0	10.815127087574229E+0	-118.096475085945980E-3
92.500001028383863E+0	10.805577296206399E+0	-111.003066219671740E-3
93.000001033942695E+0	10.792822685622223E+0	-103.321284319700670E-3
93.500001039501527E+0	10.797357374795542E+0	-97.377072461405922E-3
94.000001045060358E+0	10.801251082439789E+0	-89.860128400018002E-3
94.500001050619190E+0	10.803883612405382E+0	-83.833628279948502E-3
95.000001056178021E+0	10.793252157943950E+0	-77.306099795178565E-3
95.500001061736853E+0	10.805493286991737E+0	-71.113124683800641E-3
96.000001067295685E+0	10.800043717622042E+0	-64.128997145496636E-3
96.500001072854516E+0	10.803056190579301E+0	-58.484749734631858E-3
97.000001078413348E+0	10.809369001522880E+0	-52.492399165936954E-3
97.500001083972179E+0	10.805192147470702E+0	-45.737280495630590E-3
98.000001089531011E+0	10.794650540960713E+0	-38.823821483389455E-3
98.500001095089843E+0	10.832608014972541E+0	-33.138128318182282E-3
99.000001100648674E+0	10.812631544917451E+0	-26.971393597537936E-3
99.500001106207506E+0	10.828530293333230E+0	-20.247373323304056E-3
100.000001111766340E+0	10.841479791377095E+0	-13.881934296464473E-3
100.500001117325170E+0	10.846542447434048E+0	-11.006263635637736E-3
101.000001122884000E+0	10.836853320372571E+0	-3.557129092209934E-3
101.500001128442830E+0	10.860573153369058E+0	1.916160961450151E-3
102.000001134001660E+0	10.860076156068583E+0	9.044110627964357E-3
102.500001139560500E+0	10.883018304358218E+0	13.946134136867202E-3
103.000001145119330E+0	10.886651586472102E+0	19.414352111585095E-3
103.500001150678160E+0	10.888735680899751E+0	24.605407604367122E-3
104.000001156236990E+0	10.894337169122723E+0	31.398051800544231E-3
104.500001161795820E+0	10.912526652798050E+0	35.685961585345441E-3
105.000001167354650E+0	10.908164743124624E+0	41.379385228773324E-3
105.500001172913490E+0	10.928040150831411E+0	46.240148433885131E-3
106.000001178472320E+0	10.937292192538036E+0	50.323254158659542E-3
106.500001184031150E+0	10.948884965672695E+0	56.412363579995628E-3
107.000001189589980E+0	10.973895203639618E+0	62.688050109611287E-3
107.500001195148810E+0	10.971547223766512E+0	66.496013176673877E-3
108.000001200707640E+0	10.978627375076330E+0	70.295311093738447E-3
108.500001206266480E+0	10.995150449780590E+0	76.355856571062905E-3
109.000001211825310E+0	11.012003449895850E+0	80.586171379286350E-3
109.500001217384140E+0	11.016750238726379E+0	85.113503173351451E-3
110.000001222942970E+0	11.042340134130091E+0	90.331349961547402E-3
110.500001228501800E+0	11.057860488521886E+0	94.566403980529262E-3
111.000001234060630E+0	11.043599928179693E+0	99.073208069488869E-3
111.500001239619460E+0	11.079329278994642E+0	102.061398451809460E-3
112.000001245178300E+0	11.104344132307565E+0	108.193254963168210E-3
112.500001250737130E+0	11.108553479643477E+0	113.845543235490340E-3
113.000001256295960E+0	11.113776237595026E+0	115.200813333175860E-3
113.500001261854790E+0	11.154935606309161E+0	119.932157209155630E-3
114.000001267413620E+0	11.145620312574023E+0	126.515687295713270E-3
114.500001272972450E+0	11.162952531286747E+0	129.256826409480500E-3
115.000001278531290E+0	11.184633250899966E+0	133.412541815778770E-3
115.500001284090120E+0	11.202263559008081E+0	138.925802067852350E-3
116.000001289648950E+0	11.209864732580209E+0	141.339049729553000E-3
116.500001295207780E+0	11.242116960103671E+0	143.169714457506560E-3
117.000001300766610E+0	11.238627447568165E+0	149.126130024943490E-3
117.500001306325440E+0	11.258081833698858E+0	151.103265606718050E-3
118.000001311884280E+0	11.285720025268889E+0	157.878065442145890E-3
118.500001317443110E+0	11.292572732201814E+0	160.775497590687070E-3
119.000001323001940E+0	11.328751959632823E+0	165.706874369780960E-3
119.500001328560770E+0	11.345458458254082E+0	169.937361546763280E-3
120.000001334119600E+0	11.350530230652305E+0	172.909375197310120E-3
120.500001339678430E+0	11.370680677243014E+0	175.599931273436260E-3
121.000001345237270E+0	11.395278634740240E+0	179.854250247873220E-3
121.500001350796100E+0	11.417668222270304E+0	183.510742787990090E-3
122.000001356354930E+0	11.427112743341368E+0	187.877884289081840E-3
122.500001361913760E+0	11.440481642382384E+0	190.965978888950870E-3
123.000001367472590E+0	11.459182043407729E+0	194.307322318816140E-3
123.500001373031420E+0	11.473821195633020E+0	198.974485191189680E-3
124.000001378590260E+0	11.477945495937396E+0	202.318020773844420E-3
124.500001384149090E+0	11.529089461859845E+0	203.945361287075720E-3
125.000001389707920E+0	11.519782204192419E+0	207.324173771849640E-3
125.500001395266750E+0	11.542613086671714E+0	212.501506311657120E-3
126.000001400825580E+0	11.583295631001373E+0	211.782420149659030E-3
126.500001406384410E+0	11.575621852051148E+0	217.948861014250260E-3
127.000001411943240E+0	11.616885178705161E+0	221.465021164391320E-3
127.500001417502080E+0	11.624004330691770E+0	224.004911171307770E-3
128.000001423060920E+0	11.641005830182090E+0	227.011460022154050E-3
128.500001428619750E+0	11.662659939722333E+0	230.001572593806550E-3
129.000001434178590E+0	11.684342659384466E+0	233.293055203413780E-3
129.500001439737420E+0	11.677615448718875E+0	237.786222286798330E-3
130.000001445296250E+0	11.714045902351932E+0	238.658080106174730E-3
130.500001450855080E+0	11.739293879974367E+0	241.089616640315390E-3
131.000001456413910E+0	11.746345731798126E+0	245.418236576643610E-3
131.500001461972740E+0	11.775316540767195E+0	249.602035926391100E-3
132.000001467531580E+0	11.807428513135898E+0	250.267803763007890E-3
132.500001473090410E+0	11.813580527334731E+0	253.682835690253240E-3
133.000001478649240E+0	11.825857592774634E+0	255.858258587760790E-3
133.500001484208070E+0	11.848200510615877E+0	258.281169056115090E-3
134.000001489766900E+0	11.885034512109900E+0	263.405797870552570E-3
134.500001495325730E+0	11.880997048779323E+0	265.999435105607200E-3
135.000001500884560E+0	11.911041456798591E+0	266.903118835594200E-3
135.500001506443400E+0	11.916653411680516E+0	271.134567690755280E-3
136.000001512002230E+0	11.956435511596371E+0	272.498481511670110E-3
136.500001517561060E+0	11.950799056760852E+0	276.853109910571990E-3
137.000001523119890E+0	11.998499972489157E+0	277.810718898039210E-3
137.500001528678720E+0	11.993335498583802E+0	281.500396428200020E-3
138.000001534237550E+0	12.026732442199190E+0	283.848212926583740E-3
138.500001539796390E+0	12.059990593632472E+0	287.625339872641440E-3
139.000001545355220E+0	12.073746846261610E+0	288.941998562928020E-3
139.500001550914050E+0	12.093991124113339E+0	291.028253855706240E-3
140.000001556472880E+0	12.113771858695788E+0	294.552342268013470E-3
140.500001562031710E+0	12.148861910049922E+0	295.946277846804270E-3
141.000001567590540E+0	12.146071906893798E+0	299.667284584556440E-3
141.500001573149380E+0	12.168249770558388E+0	301.311474568290990E-3
142.000001578708210E+0	12.177583654301037E+0	303.220632129920340E-3
142.500001584267040E+0	12.203432772734093E+0	307.254643406332910E-3
143.000001589825870E+0	12.222389165595075E+0	308.916230970142920E-3
143.500001595384700E+0	12.229864026309293E+0	310.265142173852700E-3
144.000001600943530E+0	12.257309623237374E+0	314.363627144181920E-3
144.500001606502370E+0	12.274793084703862E+0	316.135965838826360E-3
145.000001612061200E+0	12.316501685761230E+0	316.910281707484530E-3
145.500001617620030E+0	12.303355024141785E+0	320.286109065789750E-3
146.000001623178860E+0	12.361356295994822E+0	322.072995501727970E-3
146.500001628737690E+0	12.364432158539048E+0	324.295053721383060E-3
